Angle,DRValue,,,é¸îgêî [mm^-1],é¸ä˙ [mm],DRValue [um]_amp
deg,um,,0,0,,0.066639583
0,0.728,,1,0.002777971,359.975,0.033735737
0.025,0.764,,2,0.005555941,179.9875,0.248307014
0.05,0.799,,3,0.008333912,119.9916667,0.022118857
0.075,0.831,,4,0.011111883,89.99375,0.004543467
0.1,0.849,,5,0.013889853,71.995,0.01914546
0.125,0.859,,6,0.016667824,59.99583333,0.008058982
0.15,0.865,,7,0.019445795,51.425,0.005135192
0.175,0.86,,8,0.022223766,44.996875,0.017106013
0.2,0.846,,9,0.025001736,39.99722222,0.017410501
0.225,0.828,,10,0.027779707,35.9975,0.022909414
0.25,0.796,,11,0.030557678,32.725,0.006187631
0.275,0.762,,12,0.033335648,29.99791667,0.002922444
0.3,0.729,,13,0.036113619,27.69038462,0.006171114
0.325,0.683,,14,0.03889159,25.7125,0.00582136
0.35,0.645,,15,0.04166956,23.99833333,0.0102476
0.375,0.605,,16,0.044447531,22.4984375,0.009909666
0.4,0.553,,17,0.047225502,21.175,0.006100792
0.425,0.507,,18,0.050003472,19.99861111,0.006591343
0.45,0.466,,19,0.052781443,18.94605263,0.022758525
0.475,0.418,,20,0.055559414,17.99875,0.0009746
0.5,0.366,,21,0.058337385,17.14166667,0.008318853
0.525,0.33,,22,0.061115355,16.3625,0.018837786
0.55,0.29,,23,0.063893326,15.65108696,0.005158962
0.575,0.247,,24,0.066671297,14.99895833,0.009197547
0.6,0.197,,25,0.069449267,14.399,0.010066803
0.625,0.169,,26,0.072227238,13.84519231,0.008398836
0.65,0.141,,27,0.075005209,13.33240741,0.011740422
0.675,0.117,,28,0.077783179,12.85625,0.008559139
0.7,0.096,,29,0.08056115,12.41293103,0.002901732
0.725,0.084,,30,0.083339121,11.99916667,0.004347698
0.75,0.074,,31,0.086117091,11.61209677,0.000440591
0.775,0.056,,32,0.088895062,11.24921875,0.004276196
0.8,0.046,,33,0.091673033,10.90833333,0.009233237
0.825,0.04,,34,0.094451004,10.5875,0.00250429
0.85,0.029,,35,0.097228974,10.285,0.019451838
0.875,0.015,,36,0.100006945,9.999305556,0.011238792
0.9,0.001,,37,0.102784916,9.729054054,0.007481136
0.925,-0.009,,38,0.105562886,9.473026316,0.009078703
0.95,-0.017,,39,0.108340857,9.230128205,0.004106228
0.975,-0.022,,40,0.111118828,8.999375,0.008313745
1,-0.026,,41,0.113896798,8.779878049,0.004909106
1.025,-0.024,,42,0.116674769,8.570833333,0.003848349
1.05,-0.016,,43,0.11945274,8.371511628,0.004266758
1.075,0.002,,44,0.12223071,8.18125,0.00488369
1.1,0.022,,45,0.125008681,7.999444444,0.0094969
1.125,0.053,,46,0.127786652,7.825543478,0.00446758
1.15,0.083,,47,0.130564623,7.659042553,0.002747507
1.175,0.119,,48,0.133342593,7.499479167,0.003553406
1.2,0.161,,49,0.136120564,7.346428571,0.00470662
1.225,0.199,,50,0.138898535,7.1995,0.011422827
1.25,0.238,,51,0.141676505,7.058333333,0.005245532
1.275,0.276,,52,0.144454476,6.922596154,0.009976005
1.3,0.306,,53,0.147232447,6.791981132,0.005240972
1.325,0.332,,54,0.150010417,6.666203704,0.038653849
1.35,0.356,,55,0.152788388,6.545,0.374863656
1.375,0.383,,56,0.155566359,6.428125,0.053326603
1.4,0.391,,57,0.158344329,6.315350877,0.00828989
1.425,0.397,,58,0.1611223,6.206465517,0.018191372
1.45,0.391,,59,0.163900271,6.101271186,0.012227971
1.475,0.383,,60,0.166678242,5.999583333,0.034533645
1.5,0.375,,61,0.169456212,5.901229508,0.008010821
1.525,0.358,,62,0.172234183,5.806048387,0.009976163
1.55,0.344,,63,0.175012154,5.713888889,0.002970528
1.575,0.316,,64,0.177790124,5.624609375,0.002525994
1.6,0.302,,65,0.180568095,5.538076923,0.007087347
1.625,0.288,,66,0.183346066,5.454166667,0.010803213
1.65,0.273,,67,0.186124036,5.372761194,0.002304879
1.675,0.255,,68,0.188902007,5.29375,0.011168175
1.7,0.237,,69,0.191679978,5.217028986,0.006221058
1.725,0.227,,70,0.194457948,5.1425,0.00444212
1.75,0.227,,71,0.197235919,5.070070423,0.006295995
1.775,0.221,,72,0.20001389,4.999652778,0.007568243
1.8,0.224,,73,0.202791861,4.931164384,0.005760772
1.825,0.218,,74,0.205569831,4.864527027,0.002999294
1.85,0.228,,75,0.208347802,4.799666667,0.002765707
1.875,0.244,,76,0.211125773,4.736513158,0.01051308
1.9,0.27,,77,0.213903743,4.675,0.006240327
1.925,0.303,,78,0.216681714,4.615064103,0.00577036
1.95,0.339,,79,0.219459685,4.55664557,0.005433372
1.975,0.387,,80,0.222237655,4.4996875,0.002858685
2,0.445,,81,0.225015626,4.444135802,0.01163078
2.025,0.507,,82,0.227793597,4.389939024,0.005404305
2.05,0.572,,83,0.230571567,4.337048193,0.004160334
2.075,0.648,,84,0.233349538,4.285416667,0.014161984
2.1,0.722,,85,0.236127509,4.235,0.021544103
2.125,0.788,,86,0.23890548,4.185755814,0.014852674
2.15,0.854,,87,0.24168345,4.137643678,0.006610322
2.175,0.918,,88,0.244461421,4.090625,0.011383034
2.2,0.975,,89,0.247239392,4.044662921,0.045600772
2.225,1.013,,90,0.250017362,3.999722222,0.111605242
2.25,1.043,,91,0.252795333,3.955769231,0.022153282
2.275,1.061,,92,0.255573304,3.912771739,0.005029372
2.3,1.061,,93,0.258351274,3.870698925,0.004049632
2.325,1.05,,94,0.261129245,3.829521277,0.006941391
2.35,1.03,,95,0.263907216,3.789210526,0.003843563
2.375,0.996,,96,0.266685186,3.749739583,0.013468374
2.4,0.964,,97,0.269463157,3.711082474,0.005754899
2.425,0.932,,98,0.272241128,3.673214286,0.0085571
2.45,0.894,,99,0.275019099,3.636111111,0.002446139
2.475,0.863,,100,0.277797069,3.59975,0.010581326
2.5,0.829,,101,0.28057504,3.564108911,0.00417231
2.525,0.807,,102,0.283353011,3.529166667,0.006172875
2.55,0.793,,103,0.286130981,3.494902913,0.00466365
2.575,0.779,,104,0.288908952,3.461298077,0.003990435
2.6,0.77,,105,0.291686923,3.428333333,0.008417326
2.625,0.764,,106,0.294464893,3.395990566,0.003211771
2.65,0.764,,107,0.297242864,3.364252336,0.001903545
2.675,0.758,,108,0.300020835,3.333101852,0.006655324
2.7,0.748,,109,0.302798805,3.302522936,0.010291551
2.725,0.738,,110,0.305576776,3.2725,0.026244611
2.75,0.729,,111,0.308354747,3.243018018,0.005081323
2.775,0.701,,112,0.311132718,3.2140625,0.005888514
2.8,0.681,,113,0.313910688,3.185619469,0.012970766
2.825,0.655,,114,0.316688659,3.157675439,0.017211864
2.85,0.623,,115,0.31946663,3.130217391,0.026268426
2.875,0.582,,116,0.3222446,3.103232759,0.004881976
2.9,0.548,,117,0.325022571,3.076709402,0.006007099
2.925,0.516,,118,0.327800542,3.050635593,0.012144623
2.95,0.474,,119,0.330578512,3.025,0.004763779
2.975,0.436,,120,0.333356483,2.999791667,0.010142407
3,0.384,,121,0.336134454,2.975,0.026608591
3.025,0.339,,122,0.338912424,2.950614754,0.008713323
3.05,0.297,,123,0.341690395,2.926626016,0.00874647
3.075,0.233,,124,0.344468366,2.903024194,0.013155399
3.1,0.171,,125,0.347246337,2.8798,0.004108877
3.125,0.101,,126,0.350024307,2.856944444,0.007716198
3.15,0.042,,127,0.352802278,2.834448819,0.009238366
3.175,-0.026,,128,0.355580249,2.812304688,0.00269263
3.2,-0.104,,129,0.358358219,2.790503876,0.006739375
3.225,-0.174,,130,0.36113619,2.769038462,0.012765579
3.25,-0.24,,131,0.363914161,2.747900763,0.007571471
3.275,-0.314,,132,0.366692131,2.727083333,0.000828137
3.3,-0.383,,133,0.369470102,2.706578947,0.014629597
3.325,-0.437,,134,0.372248073,2.686380597,0.010240792
3.35,-0.495,,135,0.375026043,2.666481481,0.004751841
3.375,-0.545,,136,0.377804014,2.646875,0.021277324
3.4,-0.593,,137,0.380581985,2.627554745,0.01555184
3.425,-0.622,,138,0.383359956,2.608514493,0.002802764
3.45,-0.648,,139,0.386137926,2.589748201,0.005997005
3.475,-0.668,,140,0.388915897,2.57125,0.009078879
3.5,-0.684,,141,0.391693868,2.553014184,0.028300772
3.525,-0.686,,142,0.394471838,2.535035211,0.03754752
3.55,-0.69,,143,0.397249809,2.517307692,0.025241826
3.575,-0.693,,144,0.40002778,2.499826389,0.122839345
3.6,-0.683,,145,0.40280575,2.482586207,0.466649519
3.625,-0.683,,146,0.405583721,2.465582192,0.154830233
3.65,-0.665,,147,0.408361692,2.448809524,0.034098273
3.675,-0.655,,148,0.411139662,2.432263514,0.004843902
3.7,-0.636,,149,0.413917633,2.415939597,0.02952814
3.725,-0.62,,150,0.416695604,2.399833333,0.018079726
3.75,-0.604,,151,0.419473575,2.383940397,0.001094349
3.775,-0.588,,152,0.422251545,2.368256579,0.016221867
3.8,-0.576,,153,0.425029516,2.352777778,0.012379228
3.825,-0.56,,154,0.427807487,2.3375,0.014739912
3.85,-0.551,,155,0.430585457,2.322419355,0.021086952
3.875,-0.553,,156,0.433363428,2.307532051,0.008868096
3.9,-0.553,,157,0.436141399,2.292834395,0.013570841
3.925,-0.565,,158,0.438919369,2.278322785,0.0027422
3.95,-0.579,,159,0.44169734,2.263993711,0.006822132
3.975,-0.598,,160,0.444475311,2.24984375,0.007435841
4,-0.616,,161,0.447253281,2.235869565,0.003369438
4.025,-0.634,,162,0.450031252,2.222067901,0.005205999
4.05,-0.646,,163,0.452809223,2.208435583,0.013971694
4.075,-0.664,,164,0.455587194,2.194969512,0.011099797
4.1,-0.67,,165,0.458365164,2.181666667,0.006011035
4.125,-0.671,,166,0.461143135,2.168524096,0.008815236
4.15,-0.665,,167,0.463921106,2.155538922,0.012147575
4.175,-0.655,,168,0.466699076,2.142708333,0.006884229
4.2,-0.637,,169,0.469477047,2.130029586,0.016206211
4.225,-0.619,,170,0.472255018,2.1175,0.019459141
4.25,-0.599,,171,0.475032988,2.105116959,0.003216603
4.275,-0.578,,172,0.477810959,2.092877907,0.004715585
4.3,-0.544,,173,0.48058893,2.080780347,0.004383268
4.325,-0.516,,174,0.4833669,2.068821839,0.008677189
4.35,-0.484,,175,0.486144871,2.057,0.000413357
4.375,-0.45,,176,0.488922842,2.0453125,0.005504586
4.4,-0.415,,177,0.491700813,2.033757062,0.004844187
4.425,-0.375,,178,0.494478783,2.022331461,0.001242569
4.45,-0.331,,179,0.497256754,2.01103352,0.012603799
4.475,-0.281,,180,0.500034725,1.999861111,0.014563195
4.5,-0.223,,181,0.502812695,1.988812155,0.008528444
4.525,-0.177,,182,0.505590666,1.977884615,0.001034132
4.55,-0.116,,183,0.508368637,1.967076503,0.004552842
4.575,-0.05,,184,0.511146607,1.95638587,0.002877161
4.6,0.012,,185,0.513924578,1.945810811,0.001457178
4.625,0.068,,186,0.516702549,1.935349462,0.007689127
4.65,0.118,,187,0.519480519,1.925,0.004239308
4.675,0.173,,188,0.52225849,1.914760638,0.00632281
4.7,0.219,,189,0.525036461,1.90462963,0.006063409
4.725,0.263,,190,0.527814432,1.894605263,0.002428153
4.75,0.285,,191,0.530592402,1.884685864,0.004646242
4.775,0.305,,192,0.533370373,1.874869792,0.013165882
4.8,0.311,,193,0.536148344,1.86515544,0.002825101
4.825,0.316,,194,0.538926314,1.855541237,0.006346751
4.85,0.314,,195,0.541704285,1.846025641,0.010054131
4.875,0.298,,196,0.544482256,1.836607143,0.007325088
4.9,0.274,,197,0.547260226,1.827284264,0.001826789
4.925,0.258,,198,0.550038197,1.818055556,0.006908271
4.95,0.228,,199,0.552816168,1.808919598,0.026176827
4.975,0.205,,200,0.555594138,1.799875,0.03377897
5,0.185,,201,0.558372109,1.790920398,0.017915768
5.025,0.173,,202,0.56115008,1.782054455,0.015450253
5.05,0.165,,203,0.563928051,1.773275862,0.008205239
5.075,0.161,,204,0.566706021,1.764583333,0.012396164
5.1,0.174,,205,0.569483992,1.75597561,0.015209266
5.125,0.19,,206,0.572261963,1.747451456,0.004243038
5.15,0.214,,207,0.575039933,1.739009662,0.004847024
5.175,0.252,,208,0.577817904,1.730649038,0.005141231
5.2,0.286,,209,0.580595875,1.722368421,0.003572841
5.225,0.334,,210,0.583373845,1.714166667,0.002946959
5.25,0.373,,211,0.586151816,1.706042654,0.008068777
5.275,0.413,,212,0.588929787,1.697995283,0.004228217
5.3,0.455,,213,0.591707757,1.690023474,0.005015944
5.325,0.481,,214,0.594485728,1.682126168,0.004507626
5.35,0.503,,215,0.597263699,1.674302326,0.006660187
5.375,0.519,,216,0.60004167,1.666550926,0.004150764
5.4,0.52,,217,0.60281964,1.658870968,0.006571918
5.425,0.506,,218,0.605597611,1.651261468,0.004218126
5.45,0.488,,219,0.608375582,1.643721461,0.005014248
5.475,0.45,,220,0.611153552,1.63625,0.00968116
5.5,0.404,,221,0.613931523,1.628846154,0.003377178
5.525,0.347,,222,0.616709494,1.621509009,0.00824134
5.55,0.291,,223,0.619487464,1.614237668,0.009023718
5.575,0.221,,224,0.622265435,1.60703125,0.006063723
5.6,0.153,,225,0.625043406,1.599888889,0.002062247
5.625,0.085,,226,0.627821376,1.592809735,0.002738256
5.65,0.019,,227,0.630599347,1.585792952,0.012765946
5.675,-0.048,,228,0.633377318,1.578837719,0.003217272
5.7,-0.112,,229,0.636155289,1.571943231,0.000303899
5.725,-0.16,,230,0.638933259,1.565108696,0.013226282
5.75,-0.198,,231,0.64171123,1.558333333,0.010933379
5.775,-0.242,,232,0.644489201,1.551616379,0.003422263
5.8,-0.28,,233,0.647267171,1.544957082,0.001958696
5.825,-0.297,,234,0.650045142,1.538354701,0.016794223
5.85,-0.313,,235,0.652823113,1.531808511,0.013887343
5.875,-0.321,,236,0.655601083,1.525317797,0.006352477
5.9,-0.315,,237,0.658379054,1.518881857,0.006225249
5.925,-0.307,,238,0.661157025,1.5125,0.004263425
5.95,-0.288,,239,0.663934995,1.506171548,0.016355662
5.975,-0.268,,240,0.666712966,1.499895833,0.005078813
6,-0.25,,241,0.669490937,1.493672199,0.004504994
6.025,-0.228,,242,0.672268908,1.4875,0.010054313
6.05,-0.21,,243,0.675046878,1.481378601,0.007729183
6.075,-0.194,,244,0.677824849,1.475307377,0.003156079
6.1,-0.171,,245,0.68060282,1.469285714,0.006000785
6.125,-0.161,,246,0.68338079,1.463313008,0.000565549
6.15,-0.151,,247,0.686158761,1.457388664,0.000481883
6.175,-0.143,,248,0.688936732,1.451512097,0.005404827
6.2,-0.141,,249,0.691714702,1.445682731,0.003426113
6.225,-0.143,,250,0.694492673,1.4399,0.004120348
6.25,-0.14,,251,0.697270644,1.434163347,0.009456721
6.275,-0.15,,252,0.700048614,1.428472222,0.006901269
6.3,-0.152,,253,0.702826585,1.422826087,0.002525403
6.325,-0.154,,254,0.705604556,1.417224409,0.010081756
6.35,-0.164,,255,0.708382527,1.411666667,0.010198867
6.375,-0.164,,256,0.711160497,1.406152344,0.020049721
6.4,-0.169,,257,0.713938468,1.400680934,0.004991583
6.425,-0.167,,258,0.716716439,1.395251938,0.00283735
6.45,-0.161,,259,0.719494409,1.389864865,0.012905678
6.475,-0.161,,260,0.72227238,1.384519231,0.008391058
6.5,-0.153,,261,0.725050351,1.379214559,0.003745214
6.525,-0.146,,262,0.727828321,1.373950382,0.009594784
6.55,-0.15,,263,0.730606292,1.368726236,0.00878221
6.575,-0.138,,264,0.733384263,1.363541667,0.008673942
6.6,-0.132,,265,0.736162233,1.358396226,0.009052607
6.625,-0.132,,266,0.738940204,1.353289474,0.010486798
6.65,-0.122,,267,0.741718175,1.348220974,0.011339083
6.675,-0.113,,268,0.744496146,1.343190299,0.011289026
6.7,-0.111,,269,0.747274116,1.338197026,0.002815983
6.725,-0.095,,270,0.750052087,1.333240741,0.007913797
6.75,-0.085,,271,0.752830058,1.328321033,0.003727172
6.775,-0.067,,272,0.755608028,1.3234375,0.005296908
6.8,-0.045,,273,0.758385999,1.318589744,0.006994322
6.825,-0.014,,274,0.76116397,1.313777372,0.003543507
6.85,0.022,,275,0.76394194,1.309,0.009385289
6.875,0.068,,276,0.766719911,1.304257246,0.008288079
6.9,0.126,,277,0.769497882,1.299548736,0.00275639
6.925,0.178,,278,0.772275852,1.294874101,0.008778481
6.95,0.238,,279,0.775053823,1.290232975,0.002403625
6.975,0.315,,280,0.777831794,1.285625,0.017346228
7,0.389,,281,0.780609765,1.281049822,0.006774575
7.025,0.463,,282,0.783387735,1.276507092,0.014760262
7.05,0.527,,283,0.786165706,1.271996466,0.014259203
7.075,0.611,,284,0.788943677,1.267517606,0.01634819
7.1,0.678,,285,0.791721647,1.263070175,0.016148019
7.125,0.752,,286,0.794499618,1.258653846,0.021841415
7.15,0.808,,287,0.797277589,1.254268293,0.034244787
7.175,0.866,,288,0.800055559,1.249913194,0.017706037
7.2,0.918,,289,0.80283353,1.245588235,0.032240514
7.225,0.958,,290,0.805611501,1.241293103,0.023626233
7.25,0.987,,291,0.808389471,1.237027491,0.017388505
7.275,1.017,,292,0.811167442,1.232791096,0.028612893
7.3,1.039,,293,0.813945413,1.228583618,0.012010308
7.325,1.041,,294,0.816723384,1.224404762,0.016182113
7.35,1.033,,295,0.819501354,1.220254237,0.014334678
7.375,1.029,,296,0.822279325,1.216131757,0.009982665
7.4,1.014,,297,0.825057296,1.212037037,0.013274515
7.425,0.984,,298,0.827835266,1.207969799,0.006180451
7.45,0.95,,299,0.830613237,1.203929766,0.009918267
7.475,0.918,,300,0.833391208,1.199916667,0.002223036
7.5,0.876,,301,0.836169178,1.195930233,0.00495151
7.525,0.846,,302,0.838947149,1.191970199,0.002363749
7.55,0.821,,303,0.84172512,1.188036304,0.00304202
7.575,0.803,,304,0.84450309,1.184128289,0.003078982
7.6,0.785,,305,0.847281061,1.180245902,0.012566744
7.625,0.779,,306,0.850059032,1.176388889,0.007671374
7.65,0.775,,307,0.852837003,1.172557003,0.001433328
7.675,0.785,,308,0.855614973,1.16875,0.006306361
7.7,0.79,,309,0.858392944,1.164967638,0.010022594
7.725,0.8,,310,0.861170915,1.161209677,0.003048386
7.75,0.804,,311,0.863948885,1.157475884,0.003815954
7.775,0.804,,312,0.866726856,1.153766026,0.005816688
7.8,0.808,,313,0.869504827,1.150079872,0.001585666
7.825,0.803,,314,0.872282797,1.146417197,0.008617306
7.85,0.795,,315,0.875060768,1.142777778,0.0085936
7.875,0.775,,316,0.877838739,1.139161392,0.007236206
7.9,0.759,,317,0.880616709,1.135567823,0.003007926
7.925,0.739,,318,0.88339468,1.131996855,0.003989226
7.95,0.727,,319,0.886172651,1.128448276,0.00599912
7.975,0.708,,320,0.888950622,1.124921875,0.006508169
8,0.692,,321,0.891728592,1.121417445,0.001264525
8.025,0.676,,322,0.894506563,1.117934783,0.006980171
8.05,0.662,,323,0.897284534,1.114473684,0.00681928
8.075,0.646,,324,0.900062504,1.111033951,0.010554583
8.1,0.62,,325,0.902840475,1.107615385,0.01105567
8.125,0.599,,326,0.905618446,1.104217791,0.010470212
8.15,0.565,,327,0.908396416,1.100840979,0.00571711
8.175,0.523,,328,0.911174387,1.097484756,0.005413898
8.2,0.477,,329,0.913952358,1.094148936,0.004989217
8.225,0.425,,330,0.916730328,1.090833333,0.004816748
8.25,0.375,,331,0.919508299,1.087537764,0.008383738
8.275,0.314,,332,0.92228627,1.084262048,0.001564909
8.3,0.258,,333,0.925064241,1.081006006,0.002582776
8.325,0.214,,334,0.927842211,1.077769461,0.004570272
8.35,0.174,,335,0.930620182,1.074552239,0.001232012
8.375,0.14,,336,0.933398153,1.071354167,0.004532169
8.4,0.116,,337,0.936176123,1.068175074,0.0037424
8.425,0.107,,338,0.938954094,1.065014793,0.005513987
8.45,0.103,,339,0.941732065,1.061873156,0.005637442
8.475,0.099,,340,0.944510035,1.05875,0.006683125
8.5,0.099,,341,0.947288006,1.055645161,0.005165985
8.525,0.103,,342,0.950065977,1.05255848,0.005257933
8.55,0.105,,343,0.952843947,1.049489796,0.01318312
8.575,0.11,,344,0.955621918,1.046438953,0.022589929
8.6,0.104,,345,0.958399889,1.043405797,0.020323415
8.625,0.098,,346,0.96117786,1.040390173,0.013451919
8.65,0.086,,347,0.96395583,1.037391931,0.000707954
8.675,0.08,,348,0.966733801,1.03441092,0.006579083
8.7,0.068,,349,0.969511772,1.031446991,0.011915192
8.725,0.049,,350,0.972289742,1.0285,0.009605334
8.75,0.031,,351,0.975067713,1.025569801,0.011562995
8.775,0.015,,352,0.977845684,1.02265625,0.004067118
8.8,-0.007,,353,0.980623654,1.019759207,0.005142797
8.825,-0.033,,354,0.983401625,1.016878531,0.002763429
8.85,-0.057,,355,0.986179596,1.014014085,0.002635811
8.875,-0.094,,356,0.988957566,1.01116573,0.005351266
8.9,-0.134,,357,0.991735537,1.008333333,0.004150336
8.925,-0.172,,358,0.994513508,1.00551676,0.003695739
8.95,-0.216,,359,0.997291479,1.002715877,0.006978417
8.975,-0.262,,360,1.000069449,0.999930556,0.00277288
9,-0.318,,361,1.00284742,0.997160665,0.009697252
9.025,-0.367,,362,1.005625391,0.994406077,0.005465829
9.05,-0.405,,363,1.008403361,0.991666667,0.003422688
9.075,-0.447,,364,1.011181332,0.988942308,0.002789521
9.1,-0.475,,365,1.013959303,0.986232877,0.002503872
9.125,-0.495,,366,1.016737273,0.983538251,0.005518603
9.15,-0.507,,367,1.019515244,0.980858311,0.005125708
9.175,-0.512,,368,1.022293215,0.978192935,0.011991976
9.2,-0.506,,369,1.025071185,0.975542005,0.002965511
9.225,-0.498,,370,1.027849156,0.972905405,0.010849801
9.25,-0.48,,371,1.030627127,0.970283019,0.005585458
9.275,-0.45,,372,1.033405098,0.967674731,0.006251726
9.3,-0.418,,373,1.036183068,0.965080429,0.007006664
9.325,-0.383,,374,1.038961039,0.9625,0.012420281
9.35,-0.335,,375,1.04173901,0.959933333,0.007907223
9.375,-0.277,,376,1.04451698,0.957380319,0.019516895
9.4,-0.199,,377,1.047294951,0.954840849,0.022888536
9.425,-0.129,,378,1.050072922,0.952314815,0.015710286
9.45,-0.053,,379,1.052850892,0.949802111,0.010633405
9.475,0.05,,380,1.055628863,0.947302632,0.002554746
