Angle [deg],DRValue [um]
0,0.728
0.025,0.764
0.05,0.799
0.075,0.831
0.1,0.849
0.125,0.859
0.15,0.865
0.175,0.86
0.2,0.846
0.225,0.828
0.25,0.796
0.275,0.762
0.3,0.729
0.325,0.683
0.35,0.645
0.375,0.605
0.4,0.553
0.425,0.507
0.45,0.466
0.475,0.418
0.5,0.366
0.525,0.33
0.55,0.29
0.575,0.247
0.6,0.197
0.625,0.169
0.65,0.141
0.675,0.117
0.7,0.096
0.725,0.084
0.75,0.074
0.775,0.056
0.8,0.046
0.825,0.04
0.85,0.029
0.875,0.015
0.9,0.001
0.925,-0.009
0.95,-0.017
0.975,-0.022
1,-0.026
1.025,-0.024
1.05,-0.016
1.075,0.002
1.1,0.022
1.125,0.053
1.15,0.083
1.175,0.119
1.2,0.161
1.225,0.199
1.25,0.238
1.275,0.276
1.3,0.306
1.325,0.332
1.35,0.356
1.375,0.383
1.4,0.391
1.425,0.397
1.45,0.391
1.475,0.383
1.5,0.375
1.525,0.358
1.55,0.344
1.575,0.316
1.6,0.302
1.625,0.288
1.65,0.273
1.675,0.255
1.7,0.237
1.725,0.227
1.75,0.227
1.775,0.221
1.8,0.224
1.825,0.218
1.85,0.228
1.875,0.244
1.9,0.27
1.925,0.303
1.95,0.339
1.975,0.387
2,0.445
2.025,0.507
2.05,0.572
2.075,0.648
2.1,0.722
2.125,0.788
2.15,0.854
2.175,0.918
2.2,0.975
2.225,1.013
2.25,1.043
2.275,1.061
2.3,1.061
2.325,1.05
2.35,1.03
2.375,0.996
2.4,0.964
2.425,0.932
2.45,0.894
2.475,0.863
2.5,0.829
2.525,0.807
2.55,0.793
2.575,0.779
2.6,0.77
2.625,0.764
2.65,0.764
2.675,0.758
2.7,0.748
2.725,0.738
2.75,0.729
2.775,0.701
2.8,0.681
2.825,0.655
2.85,0.623
2.875,0.582
2.9,0.548
2.925,0.516
2.95,0.474
2.975,0.436
3,0.384
3.025,0.339
3.05,0.297
3.075,0.233
3.1,0.171
3.125,0.101
3.15,0.042
3.175,-0.026
3.2,-0.104
3.225,-0.174
3.25,-0.24
3.275,-0.314
3.3,-0.383
3.325,-0.437
3.35,-0.495
3.375,-0.545
3.4,-0.593
3.425,-0.622
3.45,-0.648
3.475,-0.668
3.5,-0.684
3.525,-0.686
3.55,-0.69
3.575,-0.693
3.6,-0.683
3.625,-0.683
3.65,-0.665
3.675,-0.655
3.7,-0.636
3.725,-0.62
3.75,-0.604
3.775,-0.588
3.8,-0.576
3.825,-0.56
3.85,-0.551
3.875,-0.553
3.9,-0.553
3.925,-0.565
3.95,-0.579
3.975,-0.598
4,-0.616
4.025,-0.634
4.05,-0.646
4.075,-0.664
4.1,-0.67
4.125,-0.671
4.15,-0.665
4.175,-0.655
4.2,-0.637
4.225,-0.619
4.25,-0.599
4.275,-0.578
4.3,-0.544
4.325,-0.516
4.35,-0.484
4.375,-0.45
4.4,-0.415
4.425,-0.375
4.45,-0.331
4.475,-0.281
4.5,-0.223
4.525,-0.177
4.55,-0.116
4.575,-0.05
4.6,0.012
4.625,0.068
4.65,0.118
4.675,0.173
4.7,0.219
4.725,0.263
4.75,0.285
4.775,0.305
4.8,0.311
4.825,0.316
4.85,0.314
4.875,0.298
4.9,0.274
4.925,0.258
4.95,0.228
4.975,0.205
5,0.185
5.025,0.173
5.05,0.165
5.075,0.161
5.1,0.174
5.125,0.19
5.15,0.214
5.175,0.252
5.2,0.286
5.225,0.334
5.25,0.373
5.275,0.413
5.3,0.455
5.325,0.481
5.35,0.503
5.375,0.519
5.4,0.52
5.425,0.506
5.45,0.488
5.475,0.45
5.5,0.404
5.525,0.347
5.55,0.291
5.575,0.221
5.6,0.153
5.625,0.085
5.65,0.019
5.675,-0.048
5.7,-0.112
5.725,-0.16
5.75,-0.198
5.775,-0.242
5.8,-0.28
5.825,-0.297
5.85,-0.313
5.875,-0.321
5.9,-0.315
5.925,-0.307
5.95,-0.288
5.975,-0.268
6,-0.25
6.025,-0.228
6.05,-0.21
6.075,-0.194
6.1,-0.171
6.125,-0.161
6.15,-0.151
6.175,-0.143
6.2,-0.141
6.225,-0.143
6.25,-0.14
6.275,-0.15
6.3,-0.152
6.325,-0.154
6.35,-0.164
6.375,-0.164
6.4,-0.169
6.425,-0.167
6.45,-0.161
6.475,-0.161
6.5,-0.153
6.525,-0.146
6.55,-0.15
6.575,-0.138
6.6,-0.132
6.625,-0.132
6.65,-0.122
6.675,-0.113
6.7,-0.111
6.725,-0.095
6.75,-0.085
6.775,-0.067
6.8,-0.045
6.825,-0.014
6.85,0.022
6.875,0.068
6.9,0.126
6.925,0.178
6.95,0.238
6.975,0.315
7,0.389
7.025,0.463
7.05,0.527
7.075,0.611
7.1,0.678
7.125,0.752
7.15,0.808
7.175,0.866
7.2,0.918
7.225,0.958
7.25,0.987
7.275,1.017
7.3,1.039
7.325,1.041
7.35,1.033
7.375,1.029
7.4,1.014
7.425,0.984
7.45,0.95
7.475,0.918
7.5,0.876
7.525,0.846
7.55,0.821
7.575,0.803
7.6,0.785
7.625,0.779
7.65,0.775
7.675,0.785
7.7,0.79
7.725,0.8
7.75,0.804
7.775,0.804
7.8,0.808
7.825,0.803
7.85,0.795
7.875,0.775
7.9,0.759
7.925,0.739
7.95,0.727
7.975,0.708
8,0.692
8.025,0.676
8.05,0.662
8.075,0.646
8.1,0.62
8.125,0.599
8.15,0.565
8.175,0.523
8.2,0.477
8.225,0.425
8.25,0.375
8.275,0.314
8.3,0.258
8.325,0.214
8.35,0.174
8.375,0.14
8.4,0.116
8.425,0.107
8.45,0.103
8.475,0.099
8.5,0.099
8.525,0.103
8.55,0.105
8.575,0.11
8.6,0.104
8.625,0.098
8.65,0.086
8.675,0.08
8.7,0.068
8.725,0.049
8.75,0.031
8.775,0.015
8.8,-0.007
8.825,-0.033
8.85,-0.057
8.875,-0.094
8.9,-0.134
8.925,-0.172
8.95,-0.216
8.975,-0.262
9,-0.318
9.025,-0.367
9.05,-0.405
9.075,-0.447
9.1,-0.475
9.125,-0.495
9.15,-0.507
9.175,-0.512
9.2,-0.506
9.225,-0.498
9.25,-0.48
9.275,-0.45
9.3,-0.418
9.325,-0.383
9.35,-0.335
9.375,-0.277
9.4,-0.199
9.425,-0.129
9.45,-0.053
9.475,0.05
9.5,0.152
9.525,0.262
9.55,0.348
9.575,0.44
9.6,0.522
9.625,0.581
9.65,0.621
9.675,0.649
9.7,0.653
9.725,0.637
9.75,0.601
9.775,0.546
9.8,0.48
9.825,0.414
9.85,0.35
9.875,0.28
9.9,0.21
9.925,0.165
9.95,0.137
9.975,0.117
10,0.117
10.025,0.125
10.05,0.143
10.075,0.17
10.1,0.2
10.125,0.222
10.15,0.248
10.175,0.268
10.2,0.282
10.225,0.287
10.25,0.279
10.275,0.267
10.3,0.241
10.325,0.211
10.35,0.181
10.375,0.14
10.4,0.102
10.425,0.066
10.45,0.026
10.475,-0.018
10.5,-0.052
10.525,-0.085
10.55,-0.121
10.575,-0.163
10.6,-0.205
10.625,-0.237
10.65,-0.283
10.675,-0.328
10.7,-0.374
10.725,-0.422
10.75,-0.464
10.775,-0.512
10.8,-0.554
10.825,-0.599
10.85,-0.631
10.875,-0.669
10.9,-0.705
10.925,-0.727
10.95,-0.749
10.975,-0.764
11,-0.78
11.025,-0.788
11.05,-0.788
11.075,-0.784
11.1,-0.776
11.125,-0.753
11.15,-0.737
11.175,-0.709
11.2,-0.687
11.225,-0.663
11.25,-0.637
11.275,-0.618
11.3,-0.61
11.325,-0.608
11.35,-0.62
11.375,-0.646
11.4,-0.682
11.425,-0.73
11.45,-0.783
11.475,-0.843
11.5,-0.911
11.525,-0.983
11.55,-1.033
11.575,-1.097
11.6,-1.144
11.625,-1.186
11.65,-1.206
11.675,-1.218
11.7,-1.214
11.725,-1.2
11.75,-1.169
11.775,-1.127
11.8,-1.065
11.825,-0.999
11.85,-0.915
11.875,-0.825
11.9,-0.726
11.925,-0.618
11.95,-0.524
11.975,-0.418
12,-0.318
12.025,-0.224
12.05,-0.149
12.075,-0.067
12.1,0.001
12.125,0.051
12.15,0.103
12.175,0.143
12.2,0.185
12.225,0.218
12.25,0.252
12.275,0.282
12.3,0.318
12.325,0.35
12.35,0.38
12.375,0.407
12.4,0.435
12.425,0.449
12.45,0.461
12.475,0.455
12.5,0.451
12.525,0.428
12.55,0.396
12.575,0.35
12.6,0.304
12.625,0.258
12.65,0.216
12.675,0.171
12.7,0.137
12.725,0.105
12.75,0.087
12.775,0.079
12.8,0.071
12.825,0.077
12.85,0.082
12.875,0.098
12.9,0.106
12.925,0.11
12.95,0.116
12.975,0.12
13,0.119
13.025,0.111
13.05,0.101
13.075,0.091
13.1,0.067
13.125,0.047
13.15,0.034
13.175,0.01
13.2,-0.008
13.225,-0.032
13.25,-0.054
13.275,-0.076
13.3,-0.1
13.325,-0.121
13.35,-0.141
13.375,-0.167
13.4,-0.195
13.425,-0.213
13.45,-0.231
13.475,-0.242
13.5,-0.244
13.525,-0.242
13.55,-0.232
13.575,-0.212
13.6,-0.184
13.625,-0.148
13.65,-0.099
13.675,-0.055
13.7,0.003
13.725,0.047
13.75,0.105
13.775,0.153
13.8,0.2
13.825,0.246
13.85,0.266
13.875,0.286
13.9,0.296
13.925,0.296
13.95,0.291
13.975,0.269
14,0.253
14.025,0.235
14.05,0.213
14.075,0.197
14.1,0.185
14.125,0.182
14.15,0.184
14.175,0.2
14.2,0.222
14.225,0.25
14.25,0.288
14.275,0.331
14.3,0.373
14.325,0.419
14.35,0.449
14.375,0.491
14.4,0.523
14.425,0.555
14.45,0.578
14.475,0.608
14.5,0.64
14.525,0.668
14.55,0.708
14.575,0.746
14.6,0.801
14.625,0.849
14.65,0.899
14.675,0.967
14.7,1.017
14.725,1.071
14.75,1.109
14.775,1.146
14.8,1.16
14.825,1.16
14.85,1.15
14.875,1.122
14.9,1.086
14.925,1.039
14.95,0.981
14.975,0.919
15,0.851
15.025,0.793
15.05,0.739
15.075,0.683
15.1,0.636
15.125,0.594
15.15,0.57
15.175,0.542
15.2,0.518
15.225,0.504
15.25,0.489
15.275,0.471
15.3,0.453
15.325,0.441
15.35,0.423
15.375,0.407
15.4,0.385
15.425,0.362
15.45,0.338
15.475,0.318
15.5,0.292
15.525,0.258
15.55,0.226
15.575,0.192
15.6,0.153
15.625,0.115
15.65,0.063
15.675,0.013
15.7,-0.049
15.725,-0.101
15.75,-0.16
15.775,-0.22
15.8,-0.276
15.825,-0.32
15.85,-0.36
15.875,-0.39
15.9,-0.41
15.925,-0.417
15.95,-0.413
15.975,-0.409
16,-0.393
16.025,-0.373
16.05,-0.357
16.075,-0.333
16.1,-0.31
16.125,-0.31
16.15,-0.304
16.175,-0.31
16.2,-0.32
16.225,-0.342
16.25,-0.355
16.275,-0.387
16.3,-0.419
16.325,-0.449
16.35,-0.475
16.375,-0.513
16.4,-0.543
16.425,-0.578
16.45,-0.61
16.475,-0.648
16.5,-0.69
16.525,-0.722
16.55,-0.754
16.575,-0.79
16.6,-0.817
16.625,-0.835
16.65,-0.853
16.675,-0.863
16.7,-0.865
16.725,-0.853
16.75,-0.843
16.775,-0.804
16.8,-0.77
16.825,-0.73
16.85,-0.684
16.875,-0.628
16.9,-0.572
16.925,-0.519
16.95,-0.467
16.975,-0.407
17,-0.347
17.025,-0.295
17.05,-0.237
17.075,-0.183
17.1,-0.13
17.125,-0.074
17.15,-0.03
17.175,0.016
17.2,0.06
17.225,0.084
17.25,0.12
17.275,0.149
17.3,0.173
17.325,0.193
17.35,0.207
17.375,0.221
17.4,0.235
17.425,0.235
17.45,0.242
17.475,0.25
17.5,0.242
17.525,0.234
17.55,0.224
17.575,0.208
17.6,0.188
17.625,0.167
17.65,0.141
17.675,0.111
17.7,0.075
17.725,0.041
17.75,0.007
17.775,-0.037
17.8,-0.082
17.825,-0.118
17.85,-0.164
17.875,-0.21
17.9,-0.258
17.925,-0.294
17.95,-0.327
17.975,-0.359
18,-0.379
18.025,-0.401
18.05,-0.409
18.075,-0.415
18.1,-0.421
18.125,-0.424
18.15,-0.426
18.175,-0.428
18.2,-0.436
18.225,-0.448
18.25,-0.462
18.275,-0.484
18.3,-0.509
18.325,-0.535
18.35,-0.559
18.375,-0.591
18.4,-0.615
18.425,-0.639
18.45,-0.655
18.475,-0.664
18.5,-0.664
18.525,-0.656
18.55,-0.654
18.575,-0.636
18.6,-0.618
18.625,-0.6
18.65,-0.581
18.675,-0.565
18.7,-0.557
18.725,-0.555
18.75,-0.557
18.775,-0.569
18.8,-0.589
18.825,-0.61
18.85,-0.64
18.875,-0.674
18.9,-0.718
18.925,-0.74
18.95,-0.766
18.975,-0.788
19,-0.803
19.025,-0.797
19.05,-0.791
19.075,-0.767
19.1,-0.731
19.125,-0.685
19.15,-0.633
19.175,-0.569
19.2,-0.504
19.225,-0.438
19.25,-0.374
19.275,-0.306
19.3,-0.234
19.325,-0.174
19.35,-0.106
19.375,-0.039
19.4,0.037
19.425,0.101
19.45,0.177
19.475,0.261
19.5,0.343
19.525,0.425
19.55,0.496
19.575,0.574
19.6,0.648
19.625,0.704
19.65,0.756
19.675,0.798
19.7,0.83
19.725,0.851
19.75,0.853
19.775,0.859
19.8,0.841
19.825,0.827
19.85,0.799
19.875,0.769
19.9,0.74
19.925,0.706
19.95,0.67
19.975,0.632
20,0.604
20.025,0.572
20.05,0.54
20.075,0.509
20.1,0.479
20.125,0.461
20.15,0.445
20.175,0.433
20.2,0.427
20.225,0.435
20.25,0.441
20.275,0.456
20.3,0.482
20.325,0.504
20.35,0.52
20.375,0.532
20.4,0.532
20.425,0.53
20.45,0.513
20.475,0.483
20.5,0.439
20.525,0.399
20.55,0.341
20.575,0.281
20.6,0.211
20.625,0.154
20.65,0.1
20.675,0.054
20.7,0.008
20.725,-0.018
20.75,-0.03
20.775,-0.042
20.8,-0.046
20.825,-0.047
20.85,-0.037
20.875,-0.033
20.9,-0.025
20.925,-0.017
20.95,-0.015
20.975,-0.007
21,-0.006
21.025,0
21.05,0
21.075,-0.006
21.1,-0.014
21.125,-0.01
21.15,-0.018
21.175,-0.031
21.2,-0.045
21.225,-0.065
21.25,-0.083
21.275,-0.107
21.3,-0.143
21.325,-0.167
21.35,-0.199
21.375,-0.222
21.4,-0.254
21.425,-0.276
21.45,-0.3
21.475,-0.316
21.5,-0.328
21.525,-0.334
21.55,-0.331
21.575,-0.319
21.6,-0.303
21.625,-0.277
21.65,-0.253
21.675,-0.209
21.7,-0.155
21.725,-0.107
21.75,-0.042
21.775,0.024
21.8,0.1
21.825,0.172
21.85,0.25
21.875,0.334
21.9,0.4
21.925,0.465
21.95,0.505
21.975,0.549
22,0.581
22.025,0.599
22.05,0.597
22.075,0.587
22.1,0.569
22.125,0.548
22.15,0.52
22.175,0.486
22.2,0.456
22.225,0.43
22.25,0.412
22.275,0.398
22.3,0.385
22.325,0.381
22.35,0.389
22.375,0.399
22.4,0.403
22.425,0.409
22.45,0.415
22.475,0.419
22.5,0.416
22.525,0.404
22.55,0.386
22.575,0.368
22.6,0.336
22.625,0.308
22.65,0.272
22.675,0.228
22.7,0.191
22.725,0.149
22.75,0.113
22.775,0.075
22.8,0.039
22.825,0.003
22.85,-0.017
22.875,-0.054
22.9,-0.082
22.925,-0.11
22.95,-0.14
22.975,-0.174
23,-0.202
23.025,-0.242
23.05,-0.27
23.075,-0.305
23.1,-0.347
23.125,-0.379
23.15,-0.407
23.175,-0.437
23.2,-0.453
23.225,-0.479
23.25,-0.493
23.275,-0.51
23.3,-0.53
23.325,-0.552
23.35,-0.58
23.375,-0.602
23.4,-0.638
23.425,-0.676
23.45,-0.706
23.475,-0.741
23.5,-0.785
23.525,-0.823
23.55,-0.851
23.575,-0.875
23.6,-0.891
23.625,-0.911
23.65,-0.909
23.675,-0.918
23.7,-0.918
23.725,-0.918
23.75,-0.91
23.775,-0.916
23.8,-0.916
23.825,-0.916
23.85,-0.905
23.875,-0.905
23.9,-0.897
23.925,-0.887
23.95,-0.877
23.975,-0.867
24,-0.853
24.025,-0.841
24.05,-0.83
24.075,-0.814
24.1,-0.8
24.125,-0.792
24.15,-0.786
24.175,-0.768
24.2,-0.754
24.225,-0.73
24.25,-0.699
24.275,-0.663
24.3,-0.615
24.325,-0.559
24.35,-0.497
24.375,-0.435
24.4,-0.363
24.425,-0.301
24.45,-0.238
24.475,-0.164
24.5,-0.094
24.525,-0.038
24.55,0.02
24.575,0.084
24.6,0.144
24.625,0.198
24.65,0.245
24.675,0.299
24.7,0.337
24.725,0.377
24.75,0.403
24.775,0.425
24.8,0.441
24.825,0.449
24.85,0.442
24.875,0.436
24.9,0.414
24.925,0.384
24.95,0.358
24.975,0.324
25,0.274
25.025,0.246
25.05,0.214
25.075,0.177
25.1,0.145
25.125,0.129
25.15,0.107
25.175,0.097
25.2,0.089
25.225,0.083
25.25,0.089
25.275,0.098
25.3,0.104
25.325,0.114
25.35,0.126
25.375,0.126
25.4,0.132
25.425,0.14
25.45,0.142
25.475,0.137
25.5,0.127
25.525,0.105
25.55,0.081
25.575,0.045
25.6,0.007
25.625,-0.039
25.65,-0.091
25.675,-0.15
25.7,-0.212
25.725,-0.26
25.75,-0.318
25.775,-0.374
25.8,-0.418
25.825,-0.448
25.85,-0.468
25.875,-0.483
25.9,-0.483
25.925,-0.471
25.95,-0.453
25.975,-0.425
26,-0.391
26.025,-0.353
26.05,-0.325
26.075,-0.285
26.1,-0.24
26.125,-0.218
26.15,-0.182
26.175,-0.15
26.2,-0.122
26.225,-0.094
26.25,-0.082
26.275,-0.064
26.3,-0.053
26.325,-0.055
26.35,-0.061
26.375,-0.065
26.4,-0.071
26.425,-0.081
26.45,-0.089
26.475,-0.089
26.5,-0.091
26.525,-0.086
26.55,-0.078
26.575,-0.07
26.6,-0.052
26.625,-0.04
26.65,-0.024
26.675,-0.012
26.7,0.004
26.725,0.031
26.75,0.051
26.775,0.083
26.8,0.117
26.825,0.157
26.85,0.211
26.875,0.283
26.9,0.369
26.925,0.445
26.95,0.536
26.975,0.644
27,0.754
27.025,0.848
27.05,0.934
27.075,1.016
27.1,1.08
27.125,1.124
27.15,1.153
27.175,1.167
27.2,1.165
27.225,1.155
27.25,1.125
27.275,1.091
27.3,1.037
27.325,0.995
27.35,0.935
27.375,0.876
27.4,0.792
27.425,0.718
27.45,0.636
27.475,0.548
27.5,0.46
27.525,0.374
27.55,0.298
27.575,0.223
27.6,0.157
27.625,0.111
27.65,0.077
27.675,0.057
27.7,0.047
27.725,0.057
27.75,0.069
27.775,0.101
27.8,0.13
27.825,0.16
27.85,0.182
27.875,0.2
27.9,0.206
27.925,0.208
27.95,0.196
27.975,0.168
28,0.14
28.025,0.099
28.05,0.057
28.075,-0.001
28.1,-0.053
28.125,-0.099
28.15,-0.153
28.175,-0.201
28.2,-0.249
28.225,-0.293
28.25,-0.326
28.275,-0.368
28.3,-0.398
28.325,-0.432
28.35,-0.46
28.375,-0.48
28.4,-0.496
28.425,-0.506
28.45,-0.51
28.475,-0.507
28.5,-0.509
28.525,-0.499
28.55,-0.489
28.575,-0.479
28.6,-0.461
28.625,-0.445
28.65,-0.431
28.675,-0.421
28.7,-0.41
28.725,-0.406
28.75,-0.414
28.775,-0.422
28.8,-0.444
28.825,-0.468
28.85,-0.496
28.875,-0.526
28.9,-0.57
28.925,-0.599
28.95,-0.643
28.975,-0.679
29,-0.709
29.025,-0.729
29.05,-0.741
29.075,-0.745
29.1,-0.735
29.125,-0.713
29.15,-0.68
29.175,-0.636
29.2,-0.59
29.225,-0.54
29.25,-0.488
29.275,-0.438
29.3,-0.376
29.325,-0.336
29.35,-0.286
29.375,-0.239
29.4,-0.189
29.425,-0.151
29.45,-0.103
29.475,-0.053
29.5,-0.005
29.525,0.049
29.55,0.101
29.575,0.157
29.6,0.214
29.625,0.26
29.65,0.302
29.675,0.348
29.7,0.378
29.725,0.402
29.75,0.414
29.775,0.42
29.8,0.41
29.825,0.387
29.85,0.357
29.875,0.311
29.9,0.263
29.925,0.207
29.95,0.159
29.975,0.095
30,0.043
30.025,-0.005
30.05,-0.045
30.075,-0.082
30.1,-0.116
30.125,-0.142
30.15,-0.158
30.175,-0.174
30.2,-0.194
30.225,-0.208
30.25,-0.226
30.275,-0.238
30.3,-0.247
30.325,-0.267
30.35,-0.285
30.375,-0.305
30.4,-0.333
30.425,-0.357
30.45,-0.387
30.475,-0.415
30.5,-0.451
30.525,-0.487
30.55,-0.518
30.575,-0.554
30.6,-0.598
30.625,-0.638
30.65,-0.674
30.675,-0.72
30.7,-0.762
30.725,-0.808
30.75,-0.85
30.775,-0.889
30.8,-0.933
30.825,-0.967
30.85,-1.003
30.875,-1.037
30.9,-1.059
30.925,-1.077
30.95,-1.089
30.975,-1.097
31,-1.087
31.025,-1.068
31.05,-1.038
31.075,-0.994
31.1,-0.948
31.125,-0.888
31.15,-0.826
31.175,-0.758
31.2,-0.7
31.225,-0.648
31.25,-0.61
31.275,-0.585
31.3,-0.581
31.325,-0.597
31.35,-0.633
31.375,-0.689
31.4,-0.757
31.425,-0.833
31.45,-0.915
31.475,-0.993
31.5,-1.066
31.525,-1.128
31.55,-1.158
31.575,-1.174
31.6,-1.17
31.625,-1.132
31.65,-1.1
31.675,-1.02
31.7,-0.94
31.725,-0.862
31.75,-0.765
31.775,-0.661
31.8,-0.551
31.825,-0.459
31.85,-0.363
31.875,-0.267
31.9,-0.177
31.925,-0.085
31.95,-0.009
31.975,0.073
32,0.144
32.025,0.214
32.05,0.28
32.075,0.354
32.1,0.416
32.125,0.468
32.15,0.516
32.175,0.566
32.2,0.602
32.225,0.62
32.25,0.641
32.275,0.645
32.3,0.637
32.325,0.617
32.35,0.589
32.375,0.555
32.4,0.525
32.425,0.483
32.45,0.459
32.475,0.431
32.5,0.414
32.525,0.4
32.55,0.398
32.575,0.406
32.6,0.426
32.625,0.45
32.65,0.474
32.675,0.502
32.7,0.528
32.725,0.54
32.75,0.546
32.775,0.541
32.8,0.521
32.825,0.483
32.85,0.435
32.875,0.379
32.9,0.303
32.925,0.245
32.95,0.189
32.975,0.125
33,0.069
33.025,0.026
33.05,-0.006
33.075,-0.024
33.1,-0.048
33.125,-0.05
33.15,-0.052
33.175,-0.056
33.2,-0.068
33.225,-0.078
33.25,-0.094
33.275,-0.125
33.3,-0.159
33.325,-0.191
33.35,-0.237
33.375,-0.285
33.4,-0.327
33.425,-0.359
33.45,-0.385
33.475,-0.401
33.5,-0.397
33.525,-0.377
33.55,-0.346
33.575,-0.302
33.6,-0.252
33.625,-0.204
33.65,-0.15
33.675,-0.104
33.7,-0.06
33.725,-0.032
33.75,-0.012
33.775,-0.008
33.8,-0.019
33.825,-0.039
33.85,-0.067
33.875,-0.103
33.9,-0.141
33.925,-0.177
33.95,-0.215
33.975,-0.241
34,-0.259
34.025,-0.261
34.05,-0.259
34.075,-0.24
34.1,-0.194
34.125,-0.15
34.15,-0.092
34.175,-0.024
34.2,0.068
34.225,0.152
34.25,0.242
34.275,0.336
34.3,0.424
34.325,0.512
34.35,0.581
34.375,0.645
34.4,0.701
34.425,0.737
34.45,0.771
34.475,0.789
34.5,0.803
34.525,0.805
34.55,0.805
34.575,0.797
34.6,0.779
34.625,0.766
34.65,0.75
34.675,0.722
34.7,0.698
34.725,0.678
34.75,0.654
34.775,0.628
34.8,0.608
34.825,0.584
34.85,0.574
34.875,0.552
34.9,0.543
34.925,0.531
34.95,0.517
34.975,0.503
35,0.489
35.025,0.471
35.05,0.453
35.075,0.421
35.1,0.381
35.125,0.337
35.15,0.283
35.175,0.226
35.2,0.164
35.225,0.102
35.25,0.05
35.275,-0.004
35.3,-0.052
35.325,-0.086
35.35,-0.122
35.375,-0.146
35.4,-0.166
35.425,-0.188
35.45,-0.207
35.475,-0.235
35.5,-0.271
35.525,-0.313
35.55,-0.365
35.575,-0.431
35.6,-0.505
35.625,-0.575
35.65,-0.653
35.675,-0.731
35.7,-0.803
35.725,-0.851
35.75,-0.896
35.775,-0.938
35.8,-0.964
35.825,-0.98
35.85,-0.984
35.875,-0.982
35.9,-0.974
35.925,-0.962
35.95,-0.946
35.975,-0.926
36,-0.908
36.025,-0.873
36.05,-0.845
36.075,-0.811
36.1,-0.773
36.125,-0.741
36.15,-0.709
36.175,-0.673
36.2,-0.639
36.225,-0.623
36.25,-0.617
36.275,-0.627
36.3,-0.645
36.325,-0.678
36.35,-0.72
36.375,-0.774
36.4,-0.832
36.425,-0.886
36.45,-0.934
36.475,-0.982
36.5,-1.018
36.525,-1.038
36.55,-1.034
36.575,-1.024
36.6,-0.98
36.625,-0.941
36.65,-0.875
36.675,-0.801
36.7,-0.715
36.725,-0.617
36.75,-0.531
36.775,-0.431
36.8,-0.345
36.825,-0.261
36.85,-0.191
36.875,-0.119
36.9,-0.06
36.925,-0.032
36.95,0.01
36.975,0.03
37,0.05
37.025,0.062
37.05,0.076
37.075,0.094
37.1,0.104
37.125,0.132
37.15,0.156
37.175,0.19
37.2,0.222
37.225,0.257
37.25,0.287
37.275,0.311
37.3,0.329
37.325,0.335
37.35,0.331
37.375,0.321
37.4,0.295
37.425,0.265
37.45,0.235
37.475,0.189
37.5,0.143
